Right_Shank_Ax,Right_Shank_Az,Right_Shank_Gy,Left_Shank_Ax,Left_Shank_Az,Left_Shank_Gy,Mode,phase
1.01761315266291,-0.0877366239825885,1.50524997711182,0.813580234845479,-0.155473249653975,0.3836666593949,1,3
1.033456787467,-0.0909876525402069,1.53953123092652,0.783148139715195,-0.177839504554868,0.517999995499849,1,3
1.04923456907272,-0.0957530856132507,1.57124998569489,0.764888882637024,-0.191259257495403,0.598599997162819,1,3
1.08503704071045,-0.0999999999999999,1.63087499141693,0.730271601676941,-0.21585184931755,0.736224997043609,1,3
1.11338272094727,-0.108740742504597,1.69357500076294,0.701135802268982,-0.251851850748062,0.92167500257492,1,3
1.14123458862305,-0.122864198684692,1.75607500076294,0.679506182670593,-0.280987653136253,1.07125000953674,1,3
1.16666667461395,-0.142320989072323,1.8167750120163,0.670024704933167,-0.322913581132889,1.21252501010895,1,3
1.18893828392029,-0.164148150384426,1.87804999351501,0.66054322719574,-0.364839509129524,1.35380001068115,1,3
1.21249384880066,-0.190172842144966,1.94342498779297,0.651061749458313,-0.40676543712616,1.49507501125336,1,3
1.24128396511078,-0.216444447636604,2.0033499956131,0.639604949951172,-0.463111114501953,1.61932501792908,1,3
1.27427160739899,-0.23896296620369,2.06132500171661,0.63990124464035,-0.52385185956955,1.78187501430511,1,3
1.30888888835907,-0.254962968826294,2.11372499465942,0.65338271856308,-0.567308652400971,1.89397501945496,1,3
1.34572839736939,-0.265333336591721,2.16565003395081,0.64730863571167,-0.626864206790924,2.02465002536774,1,3
1.38182716369629,-0.264740744233132,2.21430006027222,0.64123455286026,-0.686419761180878,2.15532503128052,1,3
1.42251851558685,-0.254222223162651,2.25960006713867,0.644641959667205,-0.706666672229767,2.23255000114441,1,3
1.46266667842865,-0.233925926685333,2.30027503967285,0.672740721702575,-0.692148149013519,2.26522498130798,1,3
1.50567903518677,-0.203506171703339,2.347825050354,0.690962946414947,-0.671012341976166,2.28219995498657,1,3
1.55130865573883,-0.156839506328106,2.39542503356933,0.777135801315308,-0.594567894935608,2.24799995422363,1,3
1.59693827629089,-0.10439506098628,2.45030002593994,0.924000012874605,-0.48449382185936,2.17944993972778,1,3
1.63713581562042,-0.0434074081480503,2.50032501220703,1.06953089237213,-0.381283950805664,2.10624995231629,1,3
1.67851853370666,0.0268641971051693,2.55770001411438,1.21303707361221,-0.295802471041679,1.99807496070862,1,3
1.72246913909912,0.103654321283102,2.61262497901916,1.3789136171341,-0.205283953249454,1.8577999830246,1,3
1.77634568214416,0.179407406598329,2.67054996490478,1.49856793880463,-0.152938276529312,1.72212498188019,1,3
1.83135802745819,0.252197532355785,2.72602496147156,1.48261730670929,-0.147654324769974,1.61712498664856,1,3
1.88651852607727,0.319259259104728,2.78667497634888,1.44227161407471,-0.148098766803741,1.53109998703003,1,3
1.93801233768463,0.377333331108093,2.84702496528625,1.36750617027283,-0.161185184121132,1.48629999160766,1,3
1.97933332920074,0.423950612545013,2.89977498054504,1.27037036418915,-0.179308639466762,1.47359998226165,1,3
2.0027777671814,0.465728396177292,2.93740000724792,1.17861726284027,-0.218962961435318,1.55847496986389,1,3
2.01693825721741,0.514567905664444,2.96579999923706,1.16177775859832,-0.24518518447876,1.64702496528625,1,3
2.02265429496765,0.57387655377388,2.98469996452332,1.17999999523163,-0.301382714509964,1.74049997329712,1,3
2.02265429496765,0.617728412151336,3.01547498703003,1.213432097435,-0.38809877038002,1.84692497253418,1,3
2.02265429496765,0.641580271720886,3.05737500190735,1.25027160644531,-0.508938282728195,1.94635000228882,1,3
2.02265429496765,0.651111125946045,3.1035249710083,1.24019753932953,-0.576839512586594,1.92135000228882,1,3
2.02265429496765,0.632839512825012,3.14829998016358,1.20281482934952,-0.635604947805405,1.87400000095368,1,3
2.02265429496765,0.584592592716217,3.19035000801087,1.15476543903351,-0.658666682243347,1.80274999141693,1,3
2.02265429496765,0.516592586040497,3.19840002059937,1.04829630851746,-0.666913592815399,1.69332499504089,1,3
2.02265429496765,0.454024678468704,3.18402500152588,0.923160505294801,-0.655407416820526,1.58732497692108,1,4
2.02265429496765,0.387753081321716,3.16152501106262,0.83738272190094,-0.688444459438324,1.53484997749329,1,4
2.02265429496765,0.320740738511086,3.11710000038147,0.78577778339386,-0.751061737537384,1.50429997444153,1,4
2.02265429496765,0.244938272237778,3.04622497558594,0.743950617313385,-0.829777777194977,1.47587497234344,1,4
2.02265429496765,0.133382716774941,2.95557494163513,0.757037031650543,-0.907950615882873,1.47269997596741,1,4
2.02265429496765,-0.0085432082414626,2.85267496109009,0.78538271188736,-0.971753084659575,1.47309997081756,1,4
2.02265429496765,-0.170765432715416,2.74467496871948,0.850123465061188,-1.01382715702057,1.45009996891022,1,4
2.02265429496765,-0.33308641910553,2.63902497291565,0.908000016212465,-1.03545678853989,1.42752497196197,1,4
2.02265429496765,-0.465580251812935,2.52492499351502,0.957037067413331,-1.02735803127289,1.38927497863769,1,4
2.02265429496765,-0.515012347698212,2.40067501068115,0.991654348373414,-0.995604944229125,1.34234998226166,1,4
2.01659257411957,-0.541481482982636,2.24782500267029,1.02059261798859,-0.955654323101043,1.28714997768402,1,4
1.97843208312988,-0.5807901263237,2.07872500419617,1.01101236343384,-0.922469139099121,1.24957499504089,1,4
1.90792591571808,-0.662814819812775,1.91995000839233,1.00143210887909,-0.889283955097198,1.21200001239776,1,4
1.82744443416595,-0.772543203830719,1.7893000125885,0.990666663646697,-0.867555558681488,1.17495002746582,1,4
1.72790122032165,-0.922617280483245,1.66997501850128,0.98577778339386,-0.847209882736206,1.13427503108978,1,4
1.6081481218338,-1.06054321527481,1.57640001773834,0.990419769287109,-0.831358027458191,1.08840003013611,1,4
1.5166419506073,-1.12637038230896,1.49007501602173,1.003555560112,-0.814370369911194,1.04297502040863,1,4
1.48632097244263,-1.083802485466,1.36977500915527,1.02093827724457,-0.793827164173126,0.988550007343292,1,4
1.50167899131775,-0.949530887603758,1.17560000419617,1.04350618124008,-0.776098763942718,0.941600000858308,1,4
1.54720985889435,-0.770716071128844,0.936675000190735,1.06291358470917,-0.765481472015381,0.906924998760223,1,4
1.62138271331787,-0.588000011444091,0.641250000894069,1.09195060729981,-0.74518518447876,0.855725002288818,1,4
1.68948147296906,-0.452296298742294,0.284749995172024,1.11550617218018,-0.722518515586853,0.802450001239777,1,4
1.69723455905914,-0.382814812660217,-0.086300005018711,1.13298764228821,-0.699407398700714,0.749750006198883,1,4
1.64281482696533,-0.394913578033447,-0.437874998152256,1.14553084373474,-0.675654315948486,0.702600002288818,1,4
1.55486421585083,-0.439555549621582,-0.762249983847141,1.15145676136017,-0.642567896842957,0.640174996852875,1,4
1.43723459243775,-0.504543209075928,-1.06312499046326,1.13723454475403,-0.609629619121552,0.599000000953674,1,4
1.32108645439148,-0.568296295404434,-1.33149998188019,1.11935799121857,-0.574123448133469,0.559450000524521,1,4
1.21674077510834,-0.631703698635101,-1.57960000038147,1.10330860614777,-0.542617273330689,0.528324997425079,1,4
1.12543212175369,-0.694320976734161,-1.80545001029968,1.07683947086334,-0.49214813709259,0.485874998569489,1,4
1.0494814991951,-0.748987650871277,-2.01287500858307,1.05264194011688,-0.437086409330368,0.44862499833107,1,4
0.997086429595949,-0.780345678329468,-2.20320000648499,1.03338267803192,-0.388444435596466,0.417424994707108,1,4
0.9508642077446,-0.787407410144806,-2.38122501373291,1.01595058441162,-0.338617277145386,0.391299998760223,1,4
0.923012351989746,-0.772246921062469,-2.55999999046326,0.996543192863465,-0.283654317259788,0.362875002622604,1,4
0.910864210128784,-0.745975315570831,-2.73179998397827,0.987555551528931,-0.247654318809509,0.345775002241135,1,4
0.904888904094696,-0.717975306510925,-2.92484998703003,0.9807901263237,-0.20795061737299,0.332875001430512,1,4
0.898913586139679,-0.696493816375732,-3.12749996185303,0.970074081420898,-0.171308644115925,0.326775002479553,1,4
0.887654328346252,-0.688641965389251,-3.33452496528626,0.960296308994293,-0.144790126383305,0.322699999809265,1,4
0.871654319763183,-0.692987644672393,-3.552649974823,0.95446914434433,-0.115061730146408,0.322724997997284,1,4
0.84943208694458,-0.707209873199463,-3.7535869410448,0.942666673660278,-0.0850864209234714,0.321224993467331,1,4
0.817629623413086,-0.730370378494263,-3.9136402702504,0.932987666130066,-0.0727407425642013,0.325599992275238,1,4
0.781185185909271,-0.74809877872467,-4.03413990681491,0.931061744689941,-0.0562962975353002,0.328799992799759,1,4
0.730370366573333,-0.768691372871399,-4.12309075238886,0.929135823249817,-0.0398518525063991,0.33199999332428,1,4
0.698716044425964,-0.793876552581787,-4.17189776736909,0.912345695495605,-0.0377283960580826,0.328149992227554,1,4
0.653086423873901,-0.8213827252388,-4.21140394020859,0.943604958057403,-0.0128395073115826,0.327099996805191,1,4
0.596987652778625,-0.846666669845581,-4.24893480440612,0.9748642206192,0.0120493814349174,0.326050001382828,1,4
0.521679008007049,-0.872543215751648,-4.28449035996168,0.977629649639128,0.0123456778004765,0.327050000429153,1,4
0.479753082990646,-0.890716052055359,-4.31807060687526,0.978567922115325,0.0168395050801337,0.33454999923706,1,4
0.43718518614769,-0.908395063877106,-4.34967554514686,0.995259284973143,0.0296296284534037,0.36837500333786,1,4
0.41530864238739,-0.914370369911194,-4.37930517477649,0.969876563549041,0.0194074065424502,0.400925004482269,1,4
0.36824691593647,-0.919703698158264,-4.40695949576415,0.936296308040619,0.00824691327288746,0.436900001764297,1,4
0.335111114382744,-0.929679000377655,-4.43263850810983,0.929135811328888,0.0138271602801978,0.467900002002716,1,4
0.307209879159927,-0.940790104866028,-4.45634221181353,0.925925934314728,0.0148148145526647,0.511125004291534,1,4
0.277135807275772,-0.940888869762421,-4.47807060687526,0.919851863384247,0.0134814813733101,0.533275002241134,1,4
0.23195061981678,-0.946320974826813,-4.49782369329501,0.920740747451782,0.0153086420148611,0.5661749958992,1,4
0.237135803699493,-0.947703695297241,-4.51560147107279,0.929827165603638,0.0180740740150213,0.595649993419647,1,4
0.251111114025116,-0.942617273330688,-4.53140394020859,0.938617289066315,0.0172839505597949,0.639399993419647,1,4
0.247160494327545,-0.942518508434296,-4.54523110070242,0.945283949375153,0.0168888889253139,0.664424991607666,1,4
0.241580247879028,-0.951851844787598,-4.55708295255427,0.944641971588135,0.0166913580149412,0.699849987030029,1,4
0.243950617313385,-0.960345661640167,-4.56695949576415,0.943012344837189,0.0152592591941357,0.732974994182587,1,4
0.247555559873581,-0.967802453041077,-4.57486073033205,0.941382718086243,0.0138271603733301,0.766100001335144,1,4
0.258864200115204,-0.978222215175629,-4.58078665625797,0.95802470445633,0.0249876534566283,0.816425001621246,1,4
0.273728397488594,-0.981629621982574,-4.58473727354192,0.995901250839233,0.0425185181200505,0.88217499256134,1,4
0.291012343764305,-0.975012338161468,-4.5867125821839,0.984296309947968,0.0467654317617417,0.912825000286102,1,4
0.327358025312424,-0.966716051101684,-4.5867125821839,0.971358036994934,0.0502222217619419,0.947974991798401,1,4
0.37649382352829,-0.955209875106812,-4.58473727354192,0.958222234249115,0.0544197529554367,0.995374989509582,1,4
0.436888885498047,-0.937234556674957,-4.58078665625797,0.913580250740051,0.05204938352108,1.01997499465942,1,4
0.509777778387069,-0.918716049194336,-4.57486073033205,0.84770370721817,0.0433086425065994,1.02915000915527,1,4
0.58612345457077,-0.89965432882309,-4.56695949576415,0.833679020404815,0.0528395071625709,1.08252500295639,1,4
0.662864196300506,-0.878765439987183,-4.55708295255427,0.81501235961914,0.0612345695495605,1.12295000553131,1,4
0.724444448947906,-0.860296308994293,-4.54523110070242,0.807012355327606,0.059802470356226,1.17060000896454,1,4
0.773185193538666,-0.84523458480835,-4.53140394020859,0.812543213367462,0.0559012353420258,1.20957500934601,1,4
0.811703705787659,-0.827901244163513,-4.51560147107279,0.839358031749725,0.0372839510440827,1.26222500801087,1,4
0.840740752220154,-0.815506172180176,-4.49782369329501,0.871111118793487,0.0134814813733101,1.29537501335144,1,4
0.855950629711151,-0.811160492897034,-4.47807060687526,0.897283947467804,-0.0292839512228966,1.36090002059937,1,4
0.869679021835327,-0.830370366573334,-4.45634221181353,0.920888888835907,-0.0634567908942701,1.43252501487732,1,4
0.88508642911911,-0.855950617790222,-4.43263850810983,0.950864195823669,-0.0979259252548219,1.51470000743866,1,4
0.90004940032959,-0.90251852273941,-4.40695949576415,0.959555542469024,-0.117679010331631,1.58320000171661,1,4
0.912592601776123,-0.958172845840454,-4.37930517477649,0.972246885299682,-0.135308641195297,1.66689999103546,1,4
0.928691363334656,-1.01664197444916,-4.34967554514686,1.000987637043,-0.130765430629254,1.72327499389649,1,4
0.956444442272186,-1.07195061445236,-4.31807060687526,1.02182714939117,-0.125728392601013,1.75407500267029,1,4
0.985530865192413,-1.13056788444519,-4.28449035996168,1.04479012489319,-0.117629627883434,1.78402500152588,1,4
1.02528394460678,-1.17703702449799,-4.24893480440612,1.0677531003952,-0.109530863165856,1.81397500038147,1,4
1.04316048622131,-1.19654319286346,-4.21140394020859,1.09274077415466,-0.0958024665713312,1.83700001239777,1,4
1.04671604633331,-1.18755555152893,-4.17189776736909,1.11758027076721,-0.0748641955666245,1.86335000991821,1,4
1.02681481838226,-1.14133332967758,-4.14034071805659,1.14933335781097,-0.0434567886404693,1.89952499866485,1,4
0.989135801792145,-1.05911111831665,-4.06426485722385,1.17259261608124,-0.0148148137144744,1.92599999904632,1,4
0.914567899703979,-0.947555553913118,-3.94739023210343,1.1958518743515,0.0138271612115204,1.95247499942779,1,4
0.850962972640991,-0.823654329776765,-3.76876190213489,1.22790124416351,0.053728395421058,1.99285001754761,1,4
0.794271612167359,-0.690074074268341,-3.53617496490479,1.24962964057922,0.0832098767161371,2.02485003471374,1,4
0.745629632472992,-0.540938273072243,-3.21367497444153,1.28029630184173,0.117679011821747,2.08302502632141,1,4
0.709925925731659,-0.411012345552445,-2.86665000915528,1.31096296310425,0.152148146927357,2.14120001792908,1,4
0.701629638671875,-0.296641978621483,-2.46682500839234,1.35516049861908,0.191851851344109,2.23287501335144,1,4
0.704000008106232,-0.213333332538605,-2.0583250284195,1.38454322814941,0.21254321038723,2.30237498283386,1,4
0.682320988178253,-0.177037036418915,-1.61117500066757,1.41664199829102,0.234469136595726,2.39202494621277,1,4
0.647654330730438,-0.188592591881752,-1.16545001864433,1.45649385452271,0.25071604847908,2.48272495269775,1,4
0.596000009775162,-0.22829629778862,-0.691224992275238,1.50706174373627,0.265975305438042,2.5892249584198,1,4
0.515703707933426,-0.309975305199623,-0.206950008869171,1.58207406997681,0.277432096004486,2.6981499671936,1,4
0.423456788063049,-0.411506164073944,0.288600003719329,1.65708639621734,0.28888888657093,2.80707497596741,1,4
0.347358027100563,-0.523604929447174,0.793724989891052,1.72938268184662,0.299111109972,2.89584999084473,1,4
0.261432096362114,-0.667209869623184,1.31914997696876,1.77451848983764,0.29358024597168,2.99057497978211,1,4
0.194765430688858,-0.814617276191711,1.82257497310638,1.8089382648468,0.289037036895752,3.06949996948242,1,4
0.18469135761261,-0.972098767757415,2.30694999694824,1.81195061206818,0.285432094335556,3.12212495803833,1,4
0.257777780294419,-1.11496297121048,2.74582498073578,1.8009382724762,0.294716042280197,3.20457496643067,1,4
0.395901241898537,-1.24385186433792,3.08984999656677,1.78992593288422,0.303999990224838,3.287024974823,1,4
0.556543216109276,-1.34587655067444,3.34855003356934,1.78246912956238,0.319259250164032,3.32647500038147,1,4
0.76671604514122,-1.3570864200592,3.54142503738404,1.8259259223938,0.383950608968735,3.40015001296997,1,4
1.02780246734619,-1.22044444084167,3.59902501106262,1.86423456668854,0.46508641242981,3.47710003852844,1,4
1.30625925064087,-1.00370370149612,3.5482750415802,1.91656789779663,0.533333325386048,3.52422504425049,1,4
1.53019751310348,-0.721234560757875,3.44045004844666,1.96890122890472,0.656049370765686,3.57720003128052,1,4
1.75655553340912,-0.38172839358449,3.24665002822876,2.02123456001282,0.799061715602876,3.6326000213623,1,4
1.93170368671417,-0.0987654365599152,2.95390000343323,2.02265429496765,0.918370354175568,3.65207500457764,1,4
2.02265429496765,-0.0274567939341066,2.67474999427795,2.02265429496765,1.0384197473526,3.66079998016357,1,4
1.99328393936157,-0.122814819961786,2.48774995803833,2.02265429496765,1.15846914052963,3.66952495574951,1,0
1.72499998807907,-0.377827176451683,2.40599994659424,2.02265429496765,1.20148148536682,3.69817495346069,1,0
1.41014814376831,-0.704543235898019,2.43484992980957,2.02265429496765,1.22419753074646,3.72439994812011,1,0
1.09208642244339,-1.06790127158165,2.570924949646,2.02265429496765,1.18953087329864,3.76732497215271,1,0
0.787308651208878,-1.36800003051758,2.73852496147156,2.02265429496765,1.13530864715576,3.80809998512268,1,0
0.517432099580765,-1.62360496520996,2.86237497329712,2.02265429496765,0.984197533130647,3.89345251734095,1,0
0.470567905902863,-1.77190124988556,2.91817498207092,2.02265429496765,0.855654335021974,4.00858560168155,1,0
0.457728397846222,-1.88730864524841,2.92292499542236,2.02265429496765,0.603604958951474,4.15705201935548,1,0
0.434814816713333,-1.94281480312347,2.89132499694824,2.02265429496765,0.377382731437684,4.30162953860378,1,1
0.389827162027359,-1.9084938287735,2.8446249961853,2.02265429496765,0.136839517951012,4.43509594674096,1,1
0.357827162742615,-1.80325925350189,2.79837498664856,2.02265429496765,-0.00681480765342728,4.49065150229652,1,1
0.373333340883255,-1.67609875202179,2.7204999923706,2.02265429496765,-0.184790122509003,4.43509594674096,1,1
0.452938276529312,-1.53772838115692,2.61100001335144,2.02265429496765,-0.260493825376034,4.31997951991176,1,1
0.574320995807648,-1.42711110115051,2.47287502288818,2.02265429496765,-0.338716042041779,4.14670198273438,1,1
0.733580249547958,-1.36266665458679,2.32635002136231,2.02265429496765,-0.413481470942497,3.93756056391604,1,1
0.90424690246582,-1.32553086280823,2.18015003204346,2.02265429496765,-0.592049366235733,3.69257747347193,1,1
1.04775307178497,-1.30864198207855,2.06182501316071,2.02138271331787,-0.765728378295899,3.43959994316101,1,1
1.13516048192978,-1.29654321670532,1.97204999923706,2.02011113166809,-0.918172824382782,3.21284995079041,1,1
1.17896294593811,-1.28469135761261,1.91514999866486,2.01883955001831,-1.06227159500122,3.03314995765686,1,1
1.18014812469482,-1.26355555057526,1.87327501773834,2.01095066070557,-1.11412345170975,2.80037498474121,1,1
1.1442962884903,-1.23417282104492,1.83660001754761,2.00306177139282,-1.06217284202576,2.63677501678467,1,1
1.09881479740143,-1.20533330440521,1.79535002708435,2.0043333530426,-0.925037038326263,2.375275015831,1,1
1.05397529602051,-1.17777774333954,1.75100002288818,2.00560493469238,-0.78790123462677,2.11377501487732,1,1
1.01535801887512,-1.14479010105133,1.70022501945496,2.00687651634216,-0.693185186386108,1.66652501821518,1,1
0.985333335399628,-1.11466665267944,1.64407501220703,2.01476540565491,-0.679851853847504,1.31932499408722,1,1
0.961629629135131,-1.07254320383072,1.58237502574921,2.00627157688141,-0.68720988035202,0.87952497303486,1,1
0.945530879497528,-1.01264197826386,1.51642501354218,1.96060490608215,-0.763950622081756,0.52527498304844,1,1
0.939506185054779,-0.937234580516816,1.4469250202179,1.82199997901916,-0.881283950805664,0.00327498018741577,1,1
0.953629624843597,-0.859604942798615,1.38370001316071,1.68339505195618,-0.956197524070739,-0.332975026965142,1,1
0.977876543998717,-0.78429628610611,1.31912500858307,1.47975308895111,-1.03585183620453,-0.788800033926963,1,1
