Right_Shank_Ax,Right_Shank_Az,Right_Shank_Gy,Left_Shank_Ax,Left_Shank_Az,Left_Shank_Gy,Mode,phase
1.13580246766408,-0.142551437020302,-0.168000000994652,1.0235390663147,-0.267407407363256,0.0994583318630854,1,4
1.12049382925034,-0.149259258061647,-0.246125003905036,1.02598762512207,-0.268765434622765,0.0990624986588955,1,4
1.10686419010162,-0.155407407879829,-0.317750005889684,1.02745676040649,-0.26958025097847,0.0988249987363815,1,4
1.07975308895111,-0.165333333611488,-0.463350006937981,1.02992589473724,-0.269382721185684,0.0962249994277954,1,4
1.05560493469238,-0.17580246925354,-0.605325001478195,1.02306170463562,-0.270765435695648,0.096374998986721,1,4
1.03876543045044,-0.181135803461075,-0.746549993753433,1.01007405519486,-0.270962965488434,0.0958999991416931,1,4
1.02562961578369,-0.186518517136574,-0.884974980354308,0.99639505147934,-0.270518517494202,0.096399998664856,1,4
1.01535801887512,-0.189629626274109,-1.0286249756813,0.97827160358429,-0.265333330631256,0.0982499986886978,1,4
1.0072592496872,-0.193530860543251,-1.16847498416901,0.963407409191132,-0.261728394031525,0.101499998569489,1,4
1.00187654495239,-0.197234565019608,-1.30517499446869,0.952641975879669,-0.256345680356026,0.104549999535084,1,4
0.993530857563018,-0.202271601557732,-1.43754999637604,0.949382722377777,-0.250024691224098,0.107400000095367,1,4
0.986123454570771,-0.206370368599892,-1.56695001125336,0.946024692058563,-0.243012347817421,0.111075000464916,1,4
0.97758024930954,-0.213283950090408,-1.6842000246048,0.946962964534759,-0.240049383044243,0.113500000536442,1,4
0.96869136095047,-0.219654321670532,-1.80132501125336,0.945975303649902,-0.235901233553887,0.117275001108646,1,4
0.958123457431793,-0.226814815402031,-1.91454999446869,0.943851852416992,-0.231654319167137,0.122100000083446,1,4
0.947851848602295,-0.232740741968155,-2.02275002002716,0.9401975274086,-0.227654320001602,0.12749999910593,1,4
0.936691355705261,-0.238765433430672,-2.12647500038147,0.935555553436279,-0.226469135284424,0.132574999332428,1,4
0.926172828674316,-0.242172840237617,-2.22837500572205,0.930024683475494,-0.226765432953835,0.13914999961853,1,4
0.912493813037872,-0.246222221851349,-2.32577500343323,0.925925922393799,-0.228197532892227,0.144424998760223,1,4
0.898962950706482,-0.251308643817902,-2.41257500648499,0.922617280483246,-0.230419754981995,0.147549998760223,1,4
0.885481464862824,-0.25659259557724,-2.49762496948242,0.918172836303711,-0.23338271677494,0.15174999833107,1,4
0.873333323001862,-0.26370370388031,-2.57364997863769,0.91565432548523,-0.234222221374512,0.156799998879432,1,4
0.861629629135132,-0.270419752597809,-2.64404997825622,0.913283956050873,-0.23762963116169,0.163399997353554,1,4
0.855061733722687,-0.277086418867111,-2.70797500610351,0.91140741109848,-0.241086423397064,0.169949996471405,1,4
0.853283953666687,-0.279999995231628,-2.77092499732971,0.908987653255463,-0.243160498142242,0.180499997735024,1,4
0.853925931453705,-0.282518512010574,-2.82817502021789,0.907703697681427,-0.244493833184242,0.189974999427796,1,4
0.855703711509705,-0.281777775287628,-2.88035001754761,0.906370353698731,-0.24627161026001,0.198074999451637,1,4
0.8598024725914,-0.280345678329468,-2.92610001564026,0.905925905704498,-0.244691359996796,0.20302500128746,1,4
0.864049386978149,-0.277382719516754,-2.96675000190735,0.910222208499909,-0.241777777671814,0.209575003385544,1,4
0.867901241779327,-0.275358027219772,-2.99977502822876,0.917086410522461,-0.240987652540207,0.214375001192093,1,4
0.87086421251297,-0.27279012799263,-3.02527503967285,0.923950612545013,-0.2401975274086,0.219174998998642,1,4
0.873481488227844,-0.269432103633881,-3.04310007095337,0.930716049671173,-0.239604935050011,0.223024997115135,1,4
0.878617286682129,-0.265432101488113,-3.05895004272461,0.937481486797333,-0.239012342691422,0.226874995231628,1,4
0.884740746021271,-0.260790124535561,-3.0684000492096,0.940345680713653,-0.238222217559815,0.231549993157387,1,4
0.89041975736618,-0.254814818501472,-3.07232503890991,0.941185188293457,-0.236691352725029,0.233974993228912,1,4
0.896345674991607,-0.246567904949188,-3.07005000114441,0.941876542568207,-0.235506168007851,0.237524995207786,1,4
0.903012347221374,-0.238370370864868,-3.06507496833801,0.943901228904724,-0.236395058035851,0.242974999547005,1,4
0.906666672229767,-0.229037037491798,-3.0570999622345,0.944345676898956,-0.239012342691422,0.252199998497963,1,4
0.906518518924713,-0.220049381256103,-3.04522495269775,0.943999993801117,-0.242617285251617,0.25954999923706,1,4
0.903308641910553,-0.211061728000641,-3.02829995155334,0.944444441795349,-0.248493832349777,0.269299998879433,1,4
0.897432100772858,-0.204148146510124,-3.00774998664856,0.945037043094635,-0.25402469933033,0.277924996614456,1,4
0.886962962150574,-0.195555555820465,-2.98099999427795,0.942962968349457,-0.259111118316651,0.288749992847443,1,4
0.875160491466522,-0.189629632234573,-2.94677500724792,0.944098770618439,-0.262222230434418,0.297474998235703,1,4
0.865037035942077,-0.182716053724289,-2.90887498855591,0.942962968349457,-0.265629637241364,0.306374996900559,1,4
0.856345677375793,-0.176246917247772,-2.86977500915527,0.941037034988403,-0.266765439510346,0.31287499666214,1,4
0.849925923347473,-0.16958025097847,-2.82645001411438,0.937876534461975,-0.267061734199524,0.323224997520447,1,4
0.847012341022491,-0.162123459577561,-2.78182501792908,0.934962964057922,-0.265333336591721,0.330699998140335,1,4
0.846913576126099,-0.153876546025276,-2.73345003128052,0.930814814567566,-0.264493829011917,0.33814999461174,1,4
0.848148143291473,-0.14770370721817,-2.68155002593994,0.928888893127441,-0.263901233673096,0.344874995946884,1,4
0.855802464485169,-0.140938273072243,-2.62000002861023,0.926469147205352,-0.261432093381882,0.353200000524521,1,4
0.863950610160828,-0.137432098388672,-2.55885000228882,0.925283968448639,-0.259802460670471,0.357675004005432,1,4
0.873827159404755,-0.139259260892868,-2.49122500419617,0.925185203552246,-0.25738271176815,0.365300005674362,1,4
0.885185182094574,-0.14562962949276,-2.42399997711182,0.924691379070282,-0.254320985078812,0.371275007724762,1,4
0.897876536846161,-0.155802467465401,-2.35500001907349,0.924098789691925,-0.251901233196259,0.379700011014938,1,4
0.905481469631195,-0.16558024585247,-2.29322500228882,0.924395084381104,-0.250518518686295,0.390475010871887,1,4
0.911111104488373,-0.169037038087845,-2.22807502746582,0.924049401283264,-0.248345682024956,0.403325009346008,1,4
0.911901223659515,-0.170666667819023,-2.16647500991821,0.924641990661621,-0.248641979694366,0.413575005531311,1,4
0.907703697681427,-0.169580247998238,-2.1025000333786,0.925234580039978,-0.248938277363777,0.423825001716614,1,4
0.896691358089447,-0.164246913790703,-2.04010000228882,0.925925934314728,-0.248592600226402,0.43162499666214,1,4
0.877382719516754,-0.162469136714935,-1.97290000915527,0.925777781009674,-0.247506180405617,0.439224994182587,1,4
0.855259263515472,-0.16414814889431,-1.90609998703003,0.92844444513321,-0.250024700164795,0.448299992084503,1,4
0.831160497665405,-0.165432098507881,-1.8385999917984,0.931950616836548,-0.252839511632919,0.460374993085861,1,4
0.80251852273941,-0.164493826031685,-1.76732499599457,0.93698765039444,-0.256790125370026,0.473974990844727,1,4
0.775901234149933,-0.163061729073524,-1.69279999732971,0.942617273330688,-0.260938268899918,0.489949995279312,1,4
0.75412346124649,-0.159259259700775,-1.61324999332428,0.948691344261169,-0.266666662693024,0.502174997329712,1,4
0.733679020404816,-0.155358025431633,-1.53079998493194,0.953234553337097,-0.270024687051773,0.513349997997284,1,4
0.718024706840515,-0.148938271403313,-1.43742499351501,0.954617273807526,-0.272049379348755,0.520799994468689,1,4
0.708197546005249,-0.145086419582367,-1.33622498512268,0.95298764705658,-0.274271601438522,0.528824996948242,1,4
0.699802482128143,-0.13906172811985,-1.22837499380112,0.94770370721817,-0.275506168603897,0.5375,1,4
0.694419765472412,-0.133135803043842,-1.11739999055862,0.942419767379761,-0.276740735769272,0.546175003051758,1,4
0.693382728099823,-0.126913580298424,-0.99377499818802,0.936296308040619,-0.275999993085861,0.557800006866455,1,4
0.695209884643555,-0.122222222387791,-0.87315000295639,0.931555557250976,-0.275012338161469,0.568375015258789,1,4
0.698074078559875,-0.117037038505077,-0.749875003099442,0.932987654209137,-0.271753078699112,0.580850017070771,1,4
0.702469146251678,-0.113777779042721,-0.620550000667572,0.937481474876404,-0.269283944368362,0.590300011634827,1,4
0.708246922492981,-0.11101234704256,-0.48629999756813,0.943209862709045,-0.266962957382202,0.602300012111664,1,4
0.713629639148712,-0.110320988297462,-0.360425001382828,0.94943208694458,-0.266222214698792,0.610675013065338,1,4
0.714913582801819,-0.113679014146328,-0.228099998086691,0.95688887834549,-0.264592587947846,0.621475005149841,1,4
0.714518523216248,-0.119061730802059,-0.103824999183416,0.960938262939453,-0.261283946037293,0.629875004291534,1,4
0.711209881305695,-0.129432101547718,0.018249998241663,0.963901221752167,-0.251703700423241,0.643875002861023,1,4
0.704888892173767,-0.140888890624046,0.134549997001886,0.964098751544953,-0.239358022809029,0.659324991703033,1,4
0.696049380302429,-0.153777781128883,0.256299994140863,0.96399998664856,-0.22696296274662,0.672949981689453,1,4
0.687999999523163,-0.168000003695488,0.369749999046326,0.962172830104828,-0.213629627227783,0.687999987602234,1,4
0.680888891220093,-0.183259263634682,0.486049997806549,0.959160482883454,-0.202172839641571,0.706774985790253,1,4
0.678864192962646,-0.197679015994072,0.600050002336502,0.95728394985199,-0.195209875702858,0.726049983501434,1,4
0.679111111164093,-0.21595062315464,0.708574998378753,0.95693827867508,-0.190864196419716,0.741324985027313,1,4
0.682419753074646,-0.23491358757019,0.811300003528594,0.956592607498169,-0.184888887405396,0.765699994564056,1,4
0.686320996284485,-0.251901239156723,0.908350002765654,0.955012357234955,-0.181333330273628,0.791449987888336,1,4
0.691209876537323,-0.269530865550041,0.998750007152555,0.953333342075348,-0.178518512845039,0.811874985694885,1,4
0.693086421489715,-0.287506175041199,1.08229999542236,0.95160493850708,-0.17748147547245,0.826199984550476,1,4
0.693185186386108,-0.302962964773178,1.16034998893738,0.949876534938812,-0.176444438099861,0.840524983406067,1,4
0.688740742206573,-0.318172836303711,1.23127498626709,0.948543190956115,-0.177185180783272,0.86307498216629,1,4
0.681185185909271,-0.332148146629334,1.29977498054504,0.947950601577759,-0.179061725735664,0.887224984169006,1,0
0.680296301841736,-0.319950616359711,1.35727498531342,0.947950601577759,-0.179308640956879,0.915499985218048,1,0
0.702074086666107,-0.26572839319706,1.39077498912811,0.948049366474152,-0.180790123343468,0.952149999141694,1,0
0.750370383262634,-0.175358021259308,1.40557498931885,0.950271594524384,-0.187061730027199,1.00284999608993,1,0
0.832592606544495,-0.0519012331962585,1.39327499866486,0.951901233196259,-0.193679013848305,1.04437499046326,1,0
0.955456793308258,0.0923456788063049,1.34212501049042,0.954123461246491,-0.201234570145607,1.09520000219345,1,0
1.10562963485718,0.237333333492279,1.25564999580383,0.958074080944061,-0.213580247759819,1.1506500005722,1,0
1.26395061016083,0.358024695515633,1.14674999713898,0.961925935745239,-0.224691358208656,1.19772498607635,1,0
1.40271604061127,0.44182716012001,1.02180000543594,0.966320991516113,-0.231061726808548,1.23682498931885,1,0
1.50039505958557,0.478617280721664,0.893149995803833,0.977333331108094,-0.241333332657814,1.27235000133514,1,0
1.55669136047363,0.492592591047287,0.786949980258942,0.988740730285646,-0.248938271403313,1.29175000190735,1,0
1.5655802488327,0.481037032604217,0.707349991798401,1.03175308704376,-0.255555558204651,1.33480000495911,1,0
1.53204939365387,0.455654311180115,0.656749999523163,1.08390123844147,-0.266617289185524,1.38467500209809,1,0
1.47851853370666,0.436493819952011,0.632825005054474,1.13639507293701,-0.279160499572754,1.43467500209809,1,0
1.41274075508118,0.427012342214584,0.631325006484985,1.18464198112488,-0.287555557489395,1.48627498149872,1,0
1.33412346839905,0.406864196062088,0.641950011253357,1.23274075984955,-0.297975307703018,1.54382498264313,1,0
1.2517037153244,0.371999999880791,0.673500001430511,1.24691359996796,-0.30622221827507,1.5689749956131,1,0
1.16449383497238,0.314567902684212,0.726674997806549,1.2481481552124,-0.315654313564301,1.59292500019073,1,0
1.0875061750412,0.239506176114082,0.79487498998642,1.24474074840546,-0.324641966819763,1.61825001239776,1,0
1.03575308322906,0.158864199835807,0.877299988269806,1.23674075603485,-0.335259252786636,1.64215002059936,1,0
1.00622222423553,0.0793086421675981,0.979099988937377,1.22730865478516,-0.346518510580063,1.66710000038147,1,0
1.00014815330505,0.00325926067307588,1.07932498455048,1.21787655353546,-0.35777776837349,1.69204998016358,1,0
1.01604939699173,-0.0532839494757355,1.17294999361038,1.21614816188812,-0.363160485029221,1.72552497386933,1,0
1.03787655830383,-0.0947654294781388,1.26307499408722,1.2160493850708,-0.367456781864166,1.75142495632172,1,0
1.0601975440979,-0.120197528600693,1.34769999980927,1.22153086662292,-0.36651850938797,1.77837495803833,1,0
1.08503704071045,-0.138716046512127,1.41632499694824,1.23190124034882,-0.365728390216827,1.80529997348786,1,0
1.1058765411377,-0.150370369851589,1.47742500305176,1.24345679283142,-0.367456787824631,1.83884997367859,1,0
1.12088887691498,-0.164148147404194,1.52827498912811,1.2521975517273,-0.372049379348755,1.86394999027252,1,0
1.13264195919037,-0.18651851862669,1.56412498950958,1.26162965297699,-0.379111111164093,1.89517500400543,1,0
1.13975307941437,-0.215259259939194,1.58179998397827,1.2694815158844,-0.39111111164093,1.92512500286102,1,0
1.13372840881348,-0.243604937195778,1.58272497653961,1.27308645248413,-0.402271604537964,1.95412497520447,1,0
1.11708643436432,-0.267111110687256,1.56649997234344,1.27545680999756,-0.412740743160248,1.98072497844696,1,0
1.09604940414429,-0.286814814805985,1.53794996738434,1.27955555915833,-0.423160499334335,2.00547494888306,1,0
1.06883952617645,-0.30014814734459,1.49932496547699,1.28296296596527,-0.431111115217209,2.02409992218017,1,0
1.03846914768219,-0.310567897558213,1.4572999715805,1.28854320049286,-0.436987656354904,2.0458249092102,1,0
1.00306172370911,-0.325382715463639,1.41339998245239,1.29629628658295,-0.440987658500672,2.0650749206543,1,0
0.971012341976166,-0.352444440126419,1.37659997940063,1.30409877300263,-0.443160498142243,2.08009991645813,1,0
0.939604926109313,-0.385333329439163,1.35327498912811,1.30493829250336,-0.453728401660919,2.09504995346069,1,0
0.915802454948425,-0.425185185670853,1.3410749912262,1.30577781200409,-0.464296305179596,2.10999999046326,1,0
0.908395051956177,-0.468345683813095,1.34809999465942,1.30182719230652,-0.475358039140701,2.11985001564026,1,0
0.92449381351471,-0.495111119747162,1.36252498626709,1.29437038898468,-0.475901246070862,2.12615003585816,1,0
0.953925907611847,-0.495111119747162,1.37219998836517,1.28306174278259,-0.460543221235275,2.13385004997254,1,0
0.99279010295868,-0.484049391746521,1.37374999523163,1.27264199256897,-0.40972840487957,2.14310002326966,1,0
1.03125925064087,-0.471160501241684,1.3685250043869,1.26587655544281,-0.343407413363457,2.16024999618531,1,0
1.05511109828949,-0.457679015398026,1.34832499027252,1.2552592754364,-0.278567904233932,2.18452496528626,1,0
1.06088888645172,-0.447407406568527,1.32257499694824,1.24192595481873,-0.23560494184494,2.224524974823,1,0
1.05565431118011,-0.444839507341385,1.29620001316071,1.2324444770813,-0.208543211221695,2.26312499046326,1,0
1.04118518829346,-0.444641977548599,1.26817500591278,1.2168395280838,-0.217629632353783,2.31240000724793,1,0
1.02325925827026,-0.437827163934708,1.2383749961853,1.19333336353302,-0.253086420893669,2.35510001182556,1,0
1.00533332824707,-0.424790126085281,1.20702500343323,1.17308645248413,-0.297975307703018,2.38347501754761,1,0
0.994320976734161,-0.410962963104248,1.17445001602173,1.1534321308136,-0.343111109733582,2.39312500953674,1,0
0.98577778339386,-0.400395059585571,1.14272501468658,1.12967903614044,-0.401679009199143,2.39934997558594,1,0
0.985530853271484,-0.388938266038895,1.1091500043869,1.10819754600525,-0.464493817090988,2.38549995422363,1,0
0.989432096481323,-0.373333323001862,1.07802500724792,1.08558025360107,-0.526024687290192,2.36404995918274,1,0
0.999012351036072,-0.360444438457489,1.04390000104904,1.0594074010849,-0.586518514156342,2.34092497825622,1,0
1.00711113214493,-0.350814813375473,1.012399995327,1.0376296043396,-0.635308635234833,2.32079997062683,1,0
1.0151605129242,-0.3428641974926,0.982424986362457,1.01343207359314,-0.685432088375092,2.29214997291565,1,0
1.01787657737732,-0.339209878444672,0.95625,0.996345663070679,-0.719654309749603,2.26757497787476,1,0
1.01970372200012,-0.341925930976868,0.933574998378754,0.984641957283019,-0.744296276569367,2.24927496910096,1,0
1.01693828105927,-0.344246917963028,0.918299996852875,0.979999995231628,-0.763407385349274,2.22009997367859,1,0
1.01412346363068,-0.346320986747742,0.905199992656708,0.975358033180237,-0.782518494129181,2.19092497825623,1,0
1.00948147773743,-0.346222221851349,0.89302499294281,0.97723457813263,-0.786864173412323,2.17369999885559,1,0
1.00637035369873,-0.34607407450676,0.880074989795685,0.989234566688537,-0.785037016868591,2.13167500495911,1,1
1.00355553627014,-0.343506175279617,0.865474998950958,1.00123455524445,-0.783209860324859,2.08965001106262,1,1
1.00227159261704,-0.342913579940796,0.845525002479553,0.992098748683929,-0.820938265323639,2.04205000400543,1,1
1.000987637043,-0.344197535514832,0.820975005626678,0.977728378772735,-0.857086420059204,1.99144999980926,1,1
1.00143209695816,-0.343851858377457,0.79410001039505,0.978320968151091,-0.825185191631317,1.90439999103546,1,1
1.00444444417954,-0.339506179094315,0.761700010299682,0.968790113925933,-0.799456799030304,1.84214999675751,1,1
1.00844444036484,-0.333185189962387,0.72627500295639,0.978716051578521,-0.728345686197281,1.72130000591278,1,1
1.01279010772705,-0.327901244163513,0.688900005817413,1.00790123939514,-0.613333332538605,1.62325000762939,1,1
1.01723453998566,-0.32439506649971,0.650349998474121,1.04488890171051,-0.492345678806305,1.45764999389648,1,1
1.02029626369476,-0.326271605491638,0.610599994659424,1.06691360473633,-0.439407408237457,1.32849998474121,1,1
1.01985182762146,-0.330074071884155,0.573574995994568,1.07866668701172,-0.394172841310501,1.16497498750687,1,1
1.01644442081451,-0.333777773380279,0.538699996471405,1.0611358165741,-0.405333340167999,1.03499999046326,1,1
1.01135801076889,-0.332938265800476,0.5065249979496,1.01614816188812,-0.437333339452743,0.845849984884264,1,1
1.00513579845428,-0.328246909379959,0.478374999761582,0.968592596054077,-0.476888889074325,0.727249991893769,1,1
0.998222219943999,-0.319901233911514,0.454275000095368,0.90246912240982,-0.524148148298264,0.558000001311302,1,1
0.99145678281784,-0.311506175994873,0.434224998950958,0.846617269515992,-0.56370370388031,0.423124998807907,1,1
0.985679018497467,-0.305679017305374,0.415500003099442,0.786716043949128,-0.591703701019287,0.264499992877245,1,1
0.980839514732361,-0.297333335876465,0.399424999952316,0.754271602630616,-0.598864197731018,0.165049995481968,1,1
0.977135813236237,-0.291604942083359,0.386300003528595,0.724691355228424,-0.601827168464661,-0.0378000065684318,1,1
0.975259268283844,-0.285185188055039,0.373625004291534,0.72064198255539,-0.594617295265198,-0.220125009119511,1,1
0.976049399375916,-0.279654324054718,0.3619500041008,0.719407415390015,-0.587160503864288,-0.431150005757808,1,1
0.97797532081604,-0.27348148226738,0.352000004053116,0.732049381732941,-0.580246925354004,-0.593375002592802,1,1
0.980888903141022,-0.27259259223938,0.342750006914139,0.744691348075867,-0.57333334684372,-0.755599999427795,1,1
